# IR Spectrum
# X-Axis:  Frequency (cm-1)
# Y-Axis:  Epsilon
#                  X                   Y               DY/DX
        0.0000000000        0.0000000000        0.0000000000
        7.0000000000        0.0000000000        0.0000000000
       14.0000000000        0.0000000000        0.0000000000
       21.0000000000        0.0000000000        0.0000000000
       28.0000000000        0.0000000000        0.0000000000
       35.0000000000        0.0000000000        0.0000000000
       42.0000000000        0.0000000000        0.0000000000
       49.0000000000        0.0000000000        0.0000000000
       56.0000000000        0.0000000000        0.0000000000
       63.0000000000        0.0000000000        0.0000000000
       70.0000000000        0.0000000000        0.0000000000
       77.0000000000        0.0016367543        0.0000209010
       84.0000000000        0.0017934866        0.0000239732
       91.0000000000        0.0019738521        0.0000276780
       98.0000000000        0.0121096984        0.0001563765
      105.0000000000        0.0132836610        0.0001797694
      112.0000000000        0.0146379688        0.0002081018
      119.0000000000        0.0162118085        0.0002427600
      126.0000000000        0.0180557121        0.0002856291
      133.0000000000        0.0202357835        0.0003393192
      140.0000000000        0.0228399055        0.0004075158
      147.0000000000        0.0259870847        0.0004955442
      154.0000000000        0.0298419192        0.0006113051
      161.0000000000        0.0346377438        0.0007668880
      168.0000000000        0.0407151194        0.0009814878
      175.0000000000        0.0485888854        0.0012869758
      182.0000000000        0.0590718485        0.0017393039
      189.0000000000        0.0735199927        0.0024439654
      196.0000000000        0.0943663347        0.0036196380
      203.0000000000        0.1264397040        0.0057833016
      210.0000000000        0.1808583251        0.0104158941
      217.0000000000        0.2900293229        0.0232320413
      224.0000000000        0.5957611712        0.0800441105
      231.0000000000        2.1424372207        0.4301705786
      238.0000000000        1.7350214337       -0.2155087360
      245.0000000000        1.6880272477        0.1599480288
      252.0000000000        5.2605104050        1.1939638133
      259.0000000000       14.5298996923       -2.0424591600
      266.0000000000        3.0631436603       -0.5968792667
      273.0000000000        1.0475346602       -0.1268050584
      280.0000000000        0.5152404626       -0.0440753907
      287.0000000000        0.3051706410       -0.0200761339
      294.0000000000        0.2017130629       -0.0107639111
      301.0000000000        0.1432735653       -0.0064281739
      308.0000000000        0.1070537433       -0.0041431332
      315.0000000000        0.0830532792       -0.0028261094
      322.0000000000        0.0663272751       -0.0020139415
      329.0000000000        0.0542026859       -0.0014859409
      336.0000000000        0.0451314471       -0.0011278166
      343.0000000000        0.0381663997       -0.0008763181
      350.0000000000        0.0327014857       -0.0006944955
      357.0000000000        0.0283341870       -0.0005597701
      364.0000000000        0.0247886209       -0.0004578110
      371.0000000000        0.0218705355       -0.0003792214
      378.0000000000        0.0194399275       -0.0003176642
      385.0000000000        0.0173938125       -0.0002687592
      392.0000000000        0.0156550618       -0.0002294125
      399.0000000000        0.0127006702       -0.0001797088
      406.0000000000        0.0115303256       -0.0001554562
      413.0000000000        0.0105145663       -0.0001353775
      420.0000000000        0.0000000000        0.0000000000
      427.0000000000        0.0000000000        0.0000000000
      434.0000000000        0.0000000000        0.0000000000
      441.0000000000        0.0000000000        0.0000000000
      448.0000000000        0.0000000000        0.0000000000
      455.0000000000        0.0000000000        0.0000000000
      462.0000000000        0.0000000000        0.0000000000
      469.0000000000        0.0000000000        0.0000000000
      476.0000000000        0.0000000000        0.0000000000
      483.0000000000        0.0000000000        0.0000000000
      490.0000000000        0.0000000000        0.0000000000
      497.0000000000        0.0000000000        0.0000000000
      504.0000000000        0.0000000000        0.0000000000
      511.0000000000        0.0000000000        0.0000000000
      518.0000000000        0.0000000000        0.0000000000
      525.0000000000        0.0000000000        0.0000000000
      532.0000000000        0.0000000000        0.0000000000
      539.0000000000        0.0000000000        0.0000000000
      546.0000000000        0.0000000000        0.0000000000
      553.0000000000        0.0000000000        0.0000000000
      560.0000000000        0.0000000000        0.0000000000
      567.0000000000        0.0000000000        0.0000000000
      574.0000000000        0.0000000000        0.0000000000
      581.0000000000        0.0000000000        0.0000000000
      588.0000000000        0.0000000000        0.0000000000
      595.0000000000        0.0000000000        0.0000000000
      602.0000000000        0.0000000000        0.0000000000
      609.0000000000        0.0000000000        0.0000000000
      616.0000000000        0.0000000000        0.0000000000
      623.0000000000        0.0000000000        0.0000000000
      630.0000000000        0.0000000000        0.0000000000
      637.0000000000        0.0000000000        0.0000000000
      644.0000000000        0.0000000000        0.0000000000
      651.0000000000        0.0000000000        0.0000000000
      658.0000000000        0.0000000000        0.0000000000
      665.0000000000        0.0000000000        0.0000000000
      672.0000000000        0.0000000000        0.0000000000
      679.0000000000        0.0000000000        0.0000000000
      686.0000000000        0.0000000000        0.0000000000
      693.0000000000        0.0000000000        0.0000000000
      700.0000000000        0.0000000000        0.0000000000
      707.0000000000        0.0000000000        0.0000000000
      714.0000000000        0.0000000000        0.0000000000
      721.0000000000        0.3643132514        0.0047280468
      728.0000000000        0.3998087372        0.0054354245
      735.0000000000        0.4407546896        0.0062912072
      742.0000000000        0.4883265714        0.0073364334
      749.0000000000        0.5440345747        0.0086265430
      756.0000000000        0.6098448263        0.0102376336
      763.0000000000        0.6883550427        0.0122760240
      770.0000000000        0.7830544775        0.0148932281
      777.0000000000        0.8987177422        0.0183100402
      784.0000000000        1.0420174501        0.0228564683
      791.0000000000        1.2225064035        0.0290402716
      798.0000000000        1.4542476257        0.0376693523
      805.0000000000        1.7586302822        0.0500806264
      812.0000000000        2.1694690514        0.0685918362
      819.0000000000        2.7427725622        0.0974530668
      826.0000000000        3.5767777294        0.1450145714
      833.0000000000        4.8566721763        0.2291730526
      840.0000000000        6.9658385540        0.3928787726
      847.0000000000       10.8052576871        0.7562798772
      854.0000000000       18.9137035013        1.7379780238
      861.0000000000       40.7659537998        5.3830725667
      868.0000000000      132.9220764339       28.6223105744
      875.0000000000      540.3910842936        0.2296660449
      882.0000000000      133.1168987872      -28.6784022852
      889.0000000000       40.8025826878       -5.3901317733
      896.0000000000       19.1183605376       -1.7370745743
      903.0000000000       11.0221130104       -0.7539247593
      910.0000000000        7.2020123895       -0.3897546680
      917.0000000000        5.1170679158       -0.2253743796
      924.0000000000        3.8662937455       -0.1404744708
      931.0000000000        3.0670741921       -0.0920240702
      938.0000000000        2.5355014216       -0.0620546389
      945.0000000000        2.1751674857       -0.0421277437
      952.0000000000        1.9326202860       -0.0278703420
      959.0000000000        1.7776505635       -0.0167830785
      966.0000000000        1.6940574827       -0.0072500692
      973.0000000000        1.6754464637        0.0019813259
      980.0000000000        1.7239735890        0.0121574939
      987.0000000000        1.8515574543        0.0248951367
      994.0000000000        2.0843751865        0.0427887370
     1001.0000000000        2.4735698256        0.0706888446
     1008.0000000000        3.1203644076        0.1188711216
     1015.0000000000        4.2400294161        0.2121331056
     1022.0000000000        6.3491915687        0.4209344200
     1029.0000000000       10.9391066592        0.9972075623
     1036.0000000000       23.4475795415        3.2291639687
     1043.0000000000       81.0613604001       18.3139334295
     1050.0000000000      275.5725733735      -22.7246543567
     1057.0000000000       60.5116317871      -12.3968938609
     1064.0000000000       19.5974086925       -2.4856063366
     1071.0000000000        9.3341897804       -0.8327870096
     1078.0000000000        5.4099859327       -0.3700830427
     1085.0000000000        3.5191668343       -0.1948211881
     1092.0000000000        2.4686637855       -0.1146786385
     1099.0000000000        1.8261465638       -0.0730447382
     1106.0000000000        1.4050284230       -0.0493330031
     1113.0000000000        1.1142532543       -0.0348585618
     1120.0000000000        0.9051418786       -0.0255310881
     1127.0000000000        0.7497708852       -0.0192533607
     1134.0000000000        0.6311988311       -0.0148748984
     1141.0000000000        0.5386661662       -0.0117288463
     1148.0000000000        0.4650746679       -0.0094105768
     1155.0000000000        0.4055887161       -0.0076649027
     1162.0000000000        0.3568222581       -0.0063254752
     1169.0000000000        0.3163471622       -0.0052807086
     1176.0000000000        0.3429173407       -0.0036843217
     1183.0000000000        0.3199122820       -0.0029088602
     1190.0000000000        0.3019555197       -0.0022355960
     1197.0000000000        0.2884562678       -0.0016300746
     1204.0000000000        0.2790448856       -0.0010630202
     1211.0000000000        0.1001226434        0.0016366647
     1218.0000000000        0.1126428190        0.0019529333
     1225.0000000000        0.1276659296        0.0023561871
     1232.0000000000        0.1459060655        0.0028784910
     1239.0000000000        0.1683512298        0.0035671972
     1246.0000000000        0.1963997167        0.0044941623
     1253.0000000000        0.2320827402        0.0057718992
     1260.0000000000        0.2784417181        0.0075831222
     1267.0000000000        0.3401962052        0.0102375729
     1274.0000000000        0.4249891758        0.0142880196
     1281.0000000000        0.5458578911        0.0207846478
     1288.0000000000        0.7265262299        0.0318843889
     1295.0000000000        1.0138866398        0.0524822131
     1302.0000000000        1.5113709608        0.0952608364
     1309.0000000000        2.4847504051        0.1997440248
     1316.0000000000        4.7912109893        0.5280175780
     1323.0000000000       12.4327541310        2.1100258145
     1330.0000000000       56.7971667008       13.8704730313
     1337.0000000000       49.4146032907      -12.3341489806
     1344.0000000000       11.3219557126       -1.8461690384
     1351.0000000000        4.5071925027       -0.4825398142
     1358.0000000000        2.3760427181       -0.1868916951
     1365.0000000000        1.4591623196       -0.0903933120
     1372.0000000000        0.9849905324       -0.0502624790
     1379.0000000000        0.7089140372       -0.0307349635
     1386.0000000000        0.5343493223       -0.0201320517
     1393.0000000000        0.4170631799       -0.0138907752
     1400.0000000000        0.3345087788       -0.0099822246
     1407.0000000000        0.2742239358       -0.0074116423
     1414.0000000000        0.2288692036       -0.0056525314
     1421.0000000000        0.1938954893       -0.0044085406
     1428.0000000000        0.1663621157       -0.0035042006
     1435.0000000000        0.1443000014       -0.0028311188
     1442.0000000000        0.1263505862       -0.0023198836
     1449.0000000000        0.1115520813       -0.0019246475
     1456.0000000000        0.0992081660       -0.0016143009
     1463.0000000000        0.0888047036       -0.0013672297
     1470.0000000000        0.0799554117       -0.0011680996
     1477.0000000000        0.0723655323       -0.0010058272
     1484.0000000000        0.0658069963       -0.0008722662
     1491.0000000000        0.0601011075       -0.0007613387
     1498.0000000000        0.0000000000        0.0000000000
     1505.0000000000        0.0000000000        0.0000000000
     1512.0000000000        0.0000000000        0.0000000000
     1519.0000000000        0.0000000000        0.0000000000
     1526.0000000000        0.0000000000        0.0000000000
     1533.0000000000        0.0000000000        0.0000000000
     1540.0000000000        0.0000000000        0.0000000000
     1547.0000000000        0.0000000000        0.0000000000
     1554.0000000000        0.0000000000        0.0000000000
     1561.0000000000        0.0000000000        0.0000000000
     1568.0000000000        0.0000000000        0.0000000000
     1575.0000000000        0.0000000000        0.0000000000
     1582.0000000000        0.0000000000        0.0000000000
     1589.0000000000        0.0000000000        0.0000000000
     1596.0000000000        0.0000000000        0.0000000000
     1603.0000000000        0.0000000000        0.0000000000
     1610.0000000000        0.0000000000        0.0000000000
     1617.0000000000        0.0000000000        0.0000000000
     1624.0000000000        0.0000000000        0.0000000000
     1631.0000000000        0.0000000000        0.0000000000
     1638.0000000000        0.0000000000        0.0000000000
     1645.0000000000        0.0000000000        0.0000000000
     1652.0000000000        0.0000000000        0.0000000000
     1659.0000000000        0.0000000000        0.0000000000
     1666.0000000000        0.0000000000        0.0000000000
     1673.0000000000        0.0000000000        0.0000000000
     1680.0000000000        0.0000000000        0.0000000000
     1687.0000000000        0.0000000000        0.0000000000
     1694.0000000000        0.0000000000        0.0000000000
     1701.0000000000        0.0000000000        0.0000000000
     1708.0000000000        0.0000000000        0.0000000000
     1715.0000000000        0.0000000000        0.0000000000
     1722.0000000000        0.0000000000        0.0000000000
     1729.0000000000        0.0000000000        0.0000000000
     1736.0000000000        0.0000000000        0.0000000000
     1743.0000000000        0.0000000000        0.0000000000
     1750.0000000000        0.0000000000        0.0000000000
     1757.0000000000        0.0000000000        0.0000000000
     1764.0000000000        0.0000000000        0.0000000000
     1771.0000000000        0.0000000000        0.0000000000
     1778.0000000000        0.0000000000        0.0000000000
     1785.0000000000        0.0000000000        0.0000000000
     1792.0000000000        0.0000000000        0.0000000000
     1799.0000000000        0.0000000000        0.0000000000
     1806.0000000000        0.0000000000        0.0000000000
     1813.0000000000        0.0000000000        0.0000000000
     1820.0000000000        0.0000000000        0.0000000000
     1827.0000000000        0.0000000000        0.0000000000
     1834.0000000000        0.0000000000        0.0000000000
     1841.0000000000        0.0000000000        0.0000000000
     1848.0000000000        0.0000000000        0.0000000000
     1855.0000000000        0.0000000000        0.0000000000
     1862.0000000000        0.0000000000        0.0000000000
     1869.0000000000        0.0000000000        0.0000000000
     1876.0000000000        0.0000000000        0.0000000000
     1883.0000000000        0.0000000000        0.0000000000
     1890.0000000000        0.0000000000        0.0000000000
     1897.0000000000        0.0000000000        0.0000000000
     1904.0000000000        0.0000000000        0.0000000000
     1911.0000000000        0.0000000000        0.0000000000
     1918.0000000000        0.0000000000        0.0000000000
     1925.0000000000        0.0000000000        0.0000000000
     1932.0000000000        0.0000000000        0.0000000000
     1939.0000000000        0.0000000000        0.0000000000
     1946.0000000000        0.0000000000        0.0000000000
     1953.0000000000        0.0000000000        0.0000000000
     1960.0000000000        0.0000000000        0.0000000000
     1967.0000000000        0.0000000000        0.0000000000
     1974.0000000000        0.0000000000        0.0000000000
     1981.0000000000        0.0000000000        0.0000000000
     1988.0000000000        0.0000000000        0.0000000000
     1995.0000000000        0.0000000000        0.0000000000
     2002.0000000000        0.0000000000        0.0000000000
     2009.0000000000        0.0000000000        0.0000000000
     2016.0000000000        0.0000000000        0.0000000000
     2023.0000000000        0.0000000000        0.0000000000
     2030.0000000000        0.0000000000        0.0000000000
     2037.0000000000        0.0000000000        0.0000000000
     2044.0000000000        0.0000000000        0.0000000000
     2051.0000000000        0.0000000000        0.0000000000
     2058.0000000000        0.0000000000        0.0000000000
     2065.0000000000        0.0000000000        0.0000000000
     2072.0000000000        0.0000000000        0.0000000000
     2079.0000000000        0.0000000000        0.0000000000
     2086.0000000000        0.0000000000        0.0000000000
     2093.0000000000        0.0000000000        0.0000000000
     2100.0000000000        0.0000000000        0.0000000000
     2107.0000000000        0.0000000000        0.0000000000
     2114.0000000000        0.0000000000        0.0000000000
     2121.0000000000        0.0000000000        0.0000000000
     2128.0000000000        0.0000000000        0.0000000000
     2135.0000000000        0.0000000000        0.0000000000
     2142.0000000000        0.0000000000        0.0000000000
     2149.0000000000        0.0000000000        0.0000000000
     2156.0000000000        0.0000000000        0.0000000000
     2163.0000000000        0.0000000000        0.0000000000
     2170.0000000000        0.0000000000        0.0000000000
     2177.0000000000        0.0000000000        0.0000000000
     2184.0000000000        0.0000000000        0.0000000000
     2191.0000000000        0.0000000000        0.0000000000
     2198.0000000000        0.0000000000        0.0000000000
     2205.0000000000        0.0000000000        0.0000000000
     2212.0000000000        0.0000000000        0.0000000000
     2219.0000000000        0.0000000000        0.0000000000
     2226.0000000000        0.0000000000        0.0000000000
     2233.0000000000        0.0000000000        0.0000000000
     2240.0000000000        0.0000000000        0.0000000000
     2247.0000000000        0.0000000000        0.0000000000
     2254.0000000000        0.0000000000        0.0000000000
     2261.0000000000        0.0000000000        0.0000000000
     2268.0000000000        0.0000000000        0.0000000000
